Time (s),X (m),Y (m),Error (m),Speed,P,I,D
0.10872387886047363,-0.1581,0.066,0.5996375086207921,0.29981875431039606,0.29981875431039606,0.0,-0.0
0.2034006118774414,-0.15817,0.06617,0.59945373998865,0.299726869994325,0.299726869994325,0.0,-0.0
0.2892923355102539,-0.15903,0.07493,0.590677232170648,0.295338616085324,0.295338616085324,0.0,-0.0
0.4053013324737549,-0.16423,0.11141,0.5538308977778428,0.2769154488889214,0.2769154488889214,0.0,-0.0
0.503584623336792,-0.17023,0.15471,0.5101171874049326,0.2550585937024663,0.2550585937024663,0.0,-0.0
0.6117210388183594,-0.1747,0.19319,0.4713846319447011,0.23569231597235055,0.23569231597235055,0.0,-0.0
0.7024111747741699,-0.17633,0.21059,0.45391909501923255,0.22695954750961628,0.22695954750961628,0.0,-0.0
0.8087544441223145,-0.17805,0.22675,0.43767077773857227,0.21883538886928613,0.21883538886928613,0.0,-0.0
0.8982999324798584,-0.18129,0.25661,0.40763877937588355,0.20381938968794178,0.20381938968794178,0.0,-0.0
1.0010731220245361,-0.18388,0.27827,0.3858245464578165,0.19291227322890825,0.19291227322890825,0.0,-0.0
1.1182973384857178,-0.1872,0.30186,0.36200571729556186,0.18100285864778093,0.18100285864778093,0.0,-0.0
1.2303717136383057,-0.18861,0.31563,0.34816664795940944,0.17408332397970472,0.17408332397970472,0.0,-0.0
1.3252320289611816,-0.19017,0.33154,0.33218479262745365,0.16609239631372683,0.16609239631372683,0.0,-0.0
1.4398293495178223,-0.19282,0.35481,0.30876494630625245,0.15438247315312623,0.15438247315312623,0.0,-0.0
1.5590698719024658,-0.19491,0.37618,0.28729806252598944,0.14364903126299472,0.14364903126299472,0.0,-0.0
1.6712987422943115,-0.19577,0.38873,0.2747337767305065,0.13736688836525324,0.13736688836525324,0.0,-0.0
1.7667782306671143,-0.19713,0.39997,0.2634118801858865,0.13170594009294326,0.13170594009294326,0.0,-0.0
1.8912408351898193,-0.19838,0.41393,0.2494010660312841,0.12470053301564205,0.12470053301564205,0.0,-0.0
1.981715440750122,-0.20054,0.43161,0.23158991368313486,0.11579495684156743,0.11579495684156743,0.0,-0.0
2.0907044410705566,-0.20163,0.4433,0.21985218756383718,0.10992609378191859,0.10992609378191859,0.0,-0.0
2.2121729850769043,-0.20279,0.45504,0.20805660804141624,0.10402830402070812,0.10402830402070812,0.0,-0.0
2.3109920024871826,-0.2035,0.46549,0.19759369425914802,0.09879684712957401,0.09879684712957401,0.0,-0.0
2.4110629558563232,-0.20484,0.47612,0.18688031443660302,0.09344015721830151,0.09344015721830151,0.0,-0.0
2.511153221130371,-0.20549,0.486,0.17699011772772966,0.08849505886386483,0.08849505886386483,0.0,-0.0
2.629664659500122,-0.20602,0.49486,0.16812642938007882,0.08406321469003941,0.08406321469003941,0.0,-0.0
2.7245426177978516,-0.20676,0.50379,0.1591694764424768,0.0795847382212384,0.0795847382212384,0.0,-0.0
2.8298704624176025,-0.20735,0.5122,0.1507457280114078,0.0753728640057039,0.0753728640057039,0.0,-0.0
2.92475962638855,-0.20853,0.52017,0.14269420908980385,0.07134710454490192,0.07134710454490192,0.0,-0.0
3.042550563812256,-0.20951,0.52779,0.13501255070701101,0.06750627535350551,0.06750627535350551,0.0,-0.0
3.148209571838379,-0.20966,0.53676,0.126080479195043,0.0630402395975215,0.0630402395975215,0.0,-0.0
3.2505712509155273,-0.21026,0.54299,0.11982220115877912,0.05991110057938956,0.05991110057938956,0.0,-0.0
3.3675427436828613,-0.2112,0.54946,0.1132882510150387,0.05664412550751935,0.05664412550751935,0.0,-0.0
3.4702823162078857,-0.2122,0.55571,0.10696626474449028,0.05348313237224514,0.05348313237224514,0.0,-0.0
3.5653300285339355,-0.21224,0.56181,0.10089850360873487,0.050449251804367434,0.050449251804367434,0.0,-0.0
3.6576220989227295,-0.21274,0.56638,0.09630123267968982,0.04815061633984491,0.04815061633984491,0.0,-0.0
3.784902811050415,-0.21346,0.5718,0.09083505914094991,0.04541752957047496,0.04541752957047496,0.0,-0.0
3.880034923553467,-0.21419,0.57722,0.08536776228067489,0.04268388114033744,0.04268388114033744,0.0,-0.0
4.012983083724976,-0.21474,0.58295,0.0796119692959878,0.0398059846479939,0.0398059846479939,0.0,-0.0
4.109042644500732,-0.21499,0.58605,0.07650319389704008,0.03825159694852004,0.03825159694852004,0.0,-0.0
4.211081504821777,-0.21474,0.58926,0.07333920575003883,0.036669602875019414,0.036669602875019414,0.0,-0.0
4.311681747436523,-0.21461,0.59395,0.06869019019031841,0.034345095095159206,0.034345095095159206,0.0,-0.0
4.41276478767395,-0.21545,0.59876,0.06381794313871336,0.03190897156935668,0.03190897156935668,0.0,-0.0
4.529818534851074,-0.21599,0.6022,0.06033984536562276,0.03016992268281138,0.03016992268281138,0.0,-0.0
4.62665867805481,-0.21608,0.60426,0.05828209832053732,0.02914104916026866,0.02914104916026866,0.0,-0.0
4.7228333950042725,-0.21612,0.60658,0.05597116160997495,0.027985580804987475,0.027985580804987475,0.0,-0.0
4.84525728225708,-0.21629,0.60956,0.05299004789674988,0.02649502394837494,0.02649502394837494,0.0,-0.0
4.952171802520752,-0.21642,0.61411,0.04845201976618563,0.024226009883092814,0.024226009883092814,0.0,-0.0
5.037831783294678,-0.21648,0.6169,0.04567133052673522,0.02283566526336761,0.02283566526336761,0.0,-0.0
5.141929626464844,-0.21639,0.61806,0.044527277267371046,0.022263638633685523,0.022263638633685523,0.0,-0.0
5.243796348571777,-0.21657,0.6189,0.043672994274051136,0.021836497137025568,0.021836497137025568,0.0,-0.0
5.341566324234009,-0.21676,0.62012,0.04243976235746516,0.02121988117873258,0.02121988117873258,0.0,-0.0
5.450641632080078,-0.21677,0.62178,0.04078794317361145,0.020393971586805726,0.020393971586805726,0.0,-0.0
5.561620473861694,-0.21681,0.62454,0.03803899023152857,0.019019495115764284,0.019019495115764284,0.0,-0.0
5.669296979904175,-0.21711,0.62768,0.03488483855058355,0.017442419275291776,0.017442419275291776,0.0,-0.0
5.770843029022217,-0.21706,0.6309,0.031687634306625356,0.015843817153312678,0.015843817153312678,0.0,-0.0
5.891680479049683,-0.21733,0.63307,0.029501319545785387,0.014750659772892694,0.014750659772892694,0.0,-0.0
5.990032911300659,-0.21791,0.63451,0.028008612652253295,0.014004306326126648,0.014004306326126648,0.0,-0.0
6.107693433761597,-0.21881,0.63475,0.027674929782033675,0.013837464891016837,0.013837464891016837,0.0,-0.0
6.198801279067993,-0.21898,0.6346,0.02780597189414835,0.013902985947074176,0.013902985947074176,0.0,0.0
6.3023459911346436,-0.21884,0.63431,0.02810923971443635,0.014054619857218176,0.014054619857218176,0.0,0.0
6.402768135070801,-0.21874,0.63461,0.027821577040867407,0.013910788520433703,0.013910788520433703,0.0,-0.0
6.521217584609985,-0.2187,0.63448,0.027955090399363836,0.013977545199681918,0.013977545199681918,0.0,0.0
6.6315624713897705,-0.21841,0.63501,0.027458781221823325,0.013729390610911663,0.013729390610911663,0.0,-0.0
6.720193862915039,-0.21835,0.63534,0.02713695449959419,0.013568477249797095,0.013568477249797095,0.0,-0.0
6.851351261138916,-0.21812,0.63567,0.026832983415828404,0.013416491707914202,0.013416491707914202,0.0,-0.0
6.952726602554321,-0.21825,0.63623,0.026262426191207222,0.013131213095603611,0.013131213095603611,0.0,-0.0
7.071252822875977,-0.2184,0.63655,0.02592842179742083,0.012964210898710415,0.012964210898710415,0.0,-0.0
7.166305065155029,-0.2184,0.63681,0.02566986662721593,0.012834933313607966,0.012834933313607966,0.0,-0.0
7.26606011390686,-0.21842,0.63719,0.02528987193542509,0.012644935967712545,0.012644935967712545,0.0,-0.0
7.368006706237793,-0.21835,0.63705,0.025436457474023122,0.012718228737011561,0.012718228737011561,0.0,0.0
7.469794511795044,-0.21787,0.63749,0.025049116184695297,0.012524558092347648,0.012524558092347648,0.0,-0.0
7.587266683578491,-0.21768,0.63728,0.02527774969120955,0.012638874845604775,0.012638874845604775,0.0,0.0
7.682027578353882,-0.21793,0.63765,0.024883732798314906,0.012441866399157453,0.012441866399157453,0.0,-0.0
7.793766260147095,-0.21825,0.63826,0.024243629561947366,0.012121814780973683,0.012121814780973683,0.0,-0.0
7.8831281661987305,-0.21836,0.63853,0.023963588216855736,0.011981794108427868,0.011981794108427868,0.0,-0.0
7.994215250015259,-0.21818,0.63841,0.024101779391531686,0.012050889695765843,0.012050889695765843,0.0,0.0
8.11171269416809,-0.21778,0.63786,0.024690496341317147,0.012345248170658574,0.012345248170658574,0.0,0.0
8.206763982772827,-0.21767,0.63775,0.024811331126907477,0.012405665563453738,0.012405665563453738,0.0,0.0
8.324535369873047,-0.21786,0.63863,0.02391635182032803,0.011958175910164015,0.011958175910164015,0.0,-0.0
8.427701711654663,-0.21805,0.63834,0.024184978573847937,0.012092489286923969,0.012092489286923969,0.0,0.0
8.551446914672852,-0.21779,0.63856,0.023993248563873193,0.011996624281936596,0.011996624281936596,0.0,-0.0
8.650398254394531,-0.21801,0.63876,0.023771441440117447,0.011885720720058723,0.011885720720058723,0.0,-0.0
8.76819396018982,-0.21766,0.6387,0.023867493539897477,0.011933746769948739,0.011933746769948739,0.0,0.0
8.87227201461792,-0.2175,0.63814,0.024441051324888163,0.012220525662444082,0.012220525662444082,0.0,0.0
8.971228122711182,-0.21724,0.63798,0.024627042519375975,0.012313521259687987,0.012313521259687987,0.0,0.0
9.057683229446411,-0.21711,0.63868,0.023944129706154227,0.011972064853077113,0.011972064853077113,0.0,-0.0
9.191116333007812,-0.21695,0.63902,0.023622326508043745,0.011811163254021873,0.011811163254021873,0.0,-0.0
9.292115211486816,-0.2168,0.63873,0.023926145273021393,0.011963072636510697,0.011963072636510697,0.0,0.0
9.392945528030396,-0.21641,0.63887,0.0238265785373295,0.01191328926866475,0.01191328926866475,0.0,-0.0
9.511752367019653,-0.21606,0.63866,0.02407091391387428,0.01203545695693714,0.01203545695693714,0.0,0.0
9.606419324874878,-0.21553,0.63873,0.024054499106035188,0.012027249553017594,0.012027249553017594,0.0,-0.0
9.708712100982666,-0.21536,0.63932,0.023484405588192203,0.011742202794096102,0.011742202794096102,0.0,-0.0
9.814141035079956,-0.21514,0.63851,0.024312270670982516,0.012156135335491258,0.012156135335491258,0.0,0.0
9.91185474395752,-0.21495,0.6388,0.024042538983997552,0.012021269491998776,0.012021269491998776,0.0,-0.0
9.99745488166809,-0.21484,0.63838,0.02447135935732969,0.012235679678664846,0.012235679678664846,0.0,0.0
10.132314205169678,-0.2144,0.6385,0.024395264612946388,0.012197632306473194,0.012197632306473194,0.0,-0.0
10.2264986038208,-0.21429,0.63855,0.02435628206328877,0.012178141031644385,0.012178141031644385,0.0,-0.0
10.342456817626953,-0.21414,0.63919,0.02373399675150023,0.011866998375750115,0.011866998375750115,0.0,-0.0
10.45015001296997,-0.21407,0.63949,0.02344224330948419,0.011721121654742095,0.011721121654742095,0.0,-0.0
10.566146612167358,-0.21365,0.63947,0.023502879452117265,0.011751439726058632,0.011751439726058632,0.0,0.0
10.690907716751099,-0.21337,0.6395,0.02350000407632269,0.011750002038161345,0.011750002038161345,0.0,-0.0
10.779093742370605,-0.21315,0.6393,0.023720192180916366,0.011860096090458183,0.011860096090458183,0.0,0.0
10.891085624694824,-0.21314,0.63989,0.0231338591146123,0.01156692955730615,0.01156692955730615,0.0,-0.0
10.986252546310425,-0.21335,0.63961,0.02339243536006219,0.011696217680031096,0.011696217680031096,0.0,0.0
11.113819360733032,-0.21325,0.63993,0.023083508989385826,0.011541754494692913,0.011541754494692913,0.0,-0.0
11.207712650299072,-0.21325,0.63982,0.023193002382946082,0.011596501191473041,0.011596501191473041,0.0,0.0
11.319791078567505,-0.21352,0.63982,0.023167054165592837,0.011583527082796419,0.011583527082796419,0.0,-0.0
11.431500434875488,-0.21332,0.64073,0.022280482846563254,0.011140241423281627,0.011140241423281627,0.0,-0.0
11.532271146774292,-0.21307,0.64154,0.0214980801241883,0.01074904006209415,0.01074904006209415,0.0,-0.0
11.626241445541382,-0.21365,0.64216,0.02082540620293094,0.01041270310146547,0.01041270310146547,0.0,-0.0
11.72144341468811,-0.21401,0.64317,0.019785407284511614,0.009892703642255807,0.009892703642255807,0.0,-0.0
0.07175660133361816,-0.21604,0.6364,0.5996842469319231,0.29984212346596156,0.29984212346596156,0.0,-0.0
0.17835187911987305,-0.21615,0.6366,0.5994624127977713,0.2997312063988857,0.2997312063988857,0.0,-0.0
0.27654242515563965,-0.20323,0.63821,0.5870749506770767,0.29353747533853836,0.29353747533853836,0.0,-0.0
0.4082062244415283,-0.1552,0.64099,0.539022804262577,0.2695114021312885,0.2695114021312885,0.0,-0.0
0.5069153308868408,-0.11393,0.64294,0.4977203588195578,0.2488601794097789,0.2488601794097789,0.0,-0.0
0.6165332794189453,-0.08266,0.64483,0.4663938249930042,0.2331969124965021,0.2331969124965021,0.0,-0.0
0.726621150970459,-0.06747,0.64545,0.45119533038241033,0.22559766519120517,0.22559766519120517,0.0,-0.0
0.8442003726959229,-0.04416,0.64681,0.42784590972039027,0.21392295486019514,0.21392295486019514,0.0,-0.0
0.9389498233795166,-0.02286,0.64834,0.40649186864630205,0.20324593432315102,0.20324593432315102,0.0,-0.0
1.0351684093475342,0.0034,0.64966,0.3802007067800262,0.1901003533900131,0.1901003533900131,0.0,-0.0
1.134324073791504,0.02538,0.65076,0.35819458546178085,0.17909729273089042,0.17909729273089042,0.0,-0.0
1.238067626953125,0.03974,0.65149,0.34381670936612585,0.17190835468306292,0.17190835468306292,0.0,-0.0
1.3380482196807861,0.05653,0.65247,0.32699816026260914,0.16349908013130457,0.16349908013130457,0.0,-0.0
1.4438683986663818,0.07629,0.65334,0.3072213884178012,0.1536106942089006,0.1536106942089006,0.0,-0.0
1.5447747707366943,0.09364,0.65368,0.2898807447126186,0.1449403723563093,0.1449403723563093,0.0,-0.0
1.639702320098877,0.10626,0.65423,0.27724982230833706,0.13862491115416853,0.13862491115416853,0.0,-0.0
1.7575974464416504,0.1205,0.655,0.26298905284842744,0.13149452642421372,0.13149452642421372,0.0,-0.0
1.8649976253509521,0.135,0.65589,0.24846195028133866,0.12423097514066933,0.12423097514066933,0.0,-0.0
1.9516913890838623,0.14938,0.65649,0.2340709227186229,0.11703546135931145,0.11703546135931145,0.0,-0.0
2.061908006668091,0.16033,0.65688,0.22311614494648352,0.11155807247324176,0.11155807247324176,0.0,-0.0
2.178811550140381,0.17072,0.65733,0.21271712198962367,0.10635856099481183,0.10635856099481183,0.0,-0.0
2.3057215213775635,0.18589,0.65845,0.19750842679628677,0.09875421339814339,0.09875421339814339,0.0,-0.0
2.4059460163116455,0.197,0.65854,0.18641024807183626,0.09320512403591813,0.09320512403591813,0.0,-0.0
2.5052649974823,0.20726,0.65889,0.17614632524891327,0.08807316262445664,0.08807316262445664,0.0,-0.0
2.6082170009613037,0.21592,0.65899,0.16749332953120827,0.08374666476560413,0.08374666476560413,0.0,-0.0
2.7201828956604004,0.22465,0.65927,0.15876071197138397,0.07938035598569199,0.07938035598569199,0.0,-0.0
2.8151817321777344,0.23255,0.65921,0.15087452165346932,0.07543726082673466,0.07543726082673466,0.0,-0.0
2.946448564529419,0.24145,0.65938,0.14197747981130882,0.07098873990565441,0.07098873990565441,0.0,-0.0
3.037271022796631,0.25056,0.65928,0.1328840104428023,0.06644200522140115,0.06644200522140115,0.0,-0.0
3.1489977836608887,0.2575,0.65975,0.1259292183650209,0.06296460918251046,0.06296460918251046,0.0,-0.0
3.2675914764404297,0.26486,0.66011,0.11856042331357924,0.05928021165678962,0.05928021165678962,0.0,-0.0
3.3845434188842773,0.27063,0.65997,0.11280440632123939,0.056402203160619696,0.056402203160619696,0.0,-0.0
3.4785966873168945,0.27858,0.66017,0.10485412250529641,0.052427061252648205,0.052427061252648205,0.0,-0.0
3.606964111328125,0.28491,0.66082,0.09849988534398113,0.049249942671990565,0.049249942671990565,0.0,-0.0
3.69749116897583,0.28942,0.66093,0.09398993527796295,0.04699496763898148,0.04699496763898148,0.0,-0.0
3.792696475982666,0.2939,0.66096,0.08951382849287681,0.044756914246438406,0.044756914246438406,0.0,-0.0
3.90342378616333,0.29838,0.66088,0.08504295936456996,0.04252147968228498,0.04252147968228498,0.0,-0.0
4.022423982620239,0.30359,0.66107,0.07982984966455442,0.03991492483227721,0.03991492483227721,0.0,-0.0
4.1190736293792725,0.30638,0.66109,0.07704209576678167,0.038521047883390835,0.038521047883390835,0.0,-0.0
4.230087041854858,0.30994,0.66097,0.0734918226655924,0.0367459113327962,0.0367459113327962,0.0,-0.0
4.345929145812988,0.31568,0.66059,0.0677757938612712,0.0338878969306356,0.0338878969306356,0.0,-0.0
4.462455987930298,0.32038,0.66056,0.06308210078262433,0.031541050391312164,0.031541050391312164,0.0,-0.0
4.567266941070557,0.32289,0.66085,0.0605614636494719,0.03028073182473595,0.03028073182473595,0.0,-0.0
4.6686882972717285,0.32456,0.66087,0.05889230277143531,0.029446151385717656,0.029446151385717656,0.0,-0.0
4.764972448348999,0.32827,0.66112,0.05517474049012738,0.02758737024506369,0.02758737024506369,0.0,-0.0
4.8831562995910645,0.33344,0.66157,0.049989484827789865,0.024994742413894933,0.024994742413894933,0.0,-0.0
4.97710919380188,0.33633,0.66188,0.04708819853434121,0.023544099267170604,0.023544099267170604,0.0,-0.0
5.103706359863281,0.33866,0.66202,0.044754203527842984,0.022377101763921492,0.022377101763921492,0.0,-0.0
5.198492765426636,0.34114,0.66167,0.04229306011131606,0.02114653005565803,0.02114653005565803,0.0,-0.0
5.295011758804321,0.34381,0.66194,0.03961346679278599,0.019806733396392995,0.019806733396392995,0.0,-0.0
5.405332565307617,0.34673,0.66186,0.0367002245695458,0.0183501122847729,0.0183501122847729,0.0,-0.0
5.504403352737427,0.34928,0.66197,0.034147862069957347,0.017073931034978673,0.017073931034978673,0.0,-0.0
5.621366500854492,0.35109,0.66144,0.03236366624395859,0.016181833121979294,0.016181833121979294,0.0,-0.0
5.716710805892944,0.35316,0.66112,0.030309873264421028,0.015154936632210514,0.015154936632210514,0.0,-0.0
5.825634479522705,0.35632,0.66184,0.02712099663192402,0.01356049831596201,0.01356049831596201,0.0,-0.0
5.9399683475494385,0.36036,0.66251,0.023054758230904415,0.011527379115452208,0.011527379115452208,0.0,-0.0
6.041514873504639,0.36282,0.66252,0.020596871858634125,0.010298435929317062,0.010298435929317062,0.0,-0.0
6.143412113189697,0.36477,0.66259,0.018645708281086137,0.009322854140543069,0.009322854140543069,0.0,-0.0
0.021071195602416992,0.36524,0.66838,0.5997646279540813,0.2998823139770406,0.2998823139770406,0.0,-0.0
0.14241600036621094,0.36541,0.66787,0.5996439101237047,0.29982195506185233,0.29982195506185233,0.0,-0.0
0.23351144790649414,0.36673,0.64722,0.5790134209552866,0.2895067104776433,0.2895067104776433,0.0,-0.0
0.33393144607543945,0.36755,0.60727,0.539074274727337,0.2695371373636685,0.2695371373636685,0.0,-0.0
0.44904208183288574,0.36813,0.56681,0.49861736243320554,0.24930868121660277,0.24930868121660277,0.0,-0.0
0.5635461807250977,0.36831,0.53513,0.4669434150445758,0.2334717075222879,0.2334717075222879,0.0,-0.0
0.6765546798706055,0.36817,0.51642,0.44824073899758204,0.22412036949879102,0.22412036949879102,0.0,-0.0
0.7786252498626709,0.36823,0.4966,0.4284230665269949,0.21421153326349746,0.21421153326349746,0.0,-0.0
0.87298583984375,0.36862,0.47067,0.4024902146727914,0.2012451073363957,0.2012451073363957,0.0,-0.0
1.0014846324920654,0.36889,0.4431,0.3749195865918138,0.1874597932959069,0.1874597932959069,0.0,-0.0
1.1008145809173584,0.3688,0.42664,0.358463021050606,0.179231510525303,0.179231510525303,0.0,-0.0
1.1988496780395508,0.36884,0.41062,0.34244413538030233,0.17122206769015116,0.17122206769015116,0.0,-0.0
1.3154571056365967,0.36891,0.38905,0.3208752099866441,0.16043760499332205,0.16043760499332205,0.0,-0.0
1.4205436706542969,0.36901,0.37133,0.3031554197900861,0.15157770989504304,0.15157770989504304,0.0,-0.0
1.5408995151519775,0.36895,0.35279,0.28461758577878815,0.14230879288939408,0.14230879288939408,0.0,-0.0
1.640610694885254,0.36909,0.33964,0.2714668508354141,0.13573342541770705,0.13573342541770705,0.0,-0.0
1.7555925846099854,0.36946,0.324,0.25582351126202707,0.12791175563101354,0.12791175563101354,0.0,-0.0
1.8497052192687988,0.36964,0.3102,0.2420223400825129,0.12101117004125644,0.12101117004125644,0.0,-0.0
1.950916051864624,0.36971,0.29641,0.22823252159447832,0.11411626079723916,0.11411626079723916,0.0,-0.0
2.067089557647705,0.36959,0.28473,0.2165547543651114,0.1082773771825557,0.1082773771825557,0.0,-0.0
2.178344488143921,0.36975,0.27318,0.2050036778652236,0.1025018389326118,0.1025018389326118,0.0,-0.0
2.279306411743164,0.36967,0.26376,0.1955851851131069,0.09779259255655345,0.09779259255655345,0.0,-0.0
