Time (s),X (m),Y (m),Error (m),Speed,P,I,D
0.07680487632751465,1e-05,8e-05,0.5999599999999999,0.5999599999999999,0.5999599999999999,0.0,-0.0
0.16461730003356934,-8e-05,0.0001,0.599907804555427,0.599907804555427,0.599907804555427,0.0,-0.0
0.2738306522369385,-0.01307,0.0083,0.5845727902717309,0.5845727902717309,0.5845727902717309,0.0,-0.0
0.37059855461120605,-0.06335,0.03849,0.5259274241031135,0.5259274241031135,0.5259274241031135,0.0,-0.0
0.47875285148620605,-0.12233,0.07499,0.4565685093851423,0.4565685093851423,0.4565685093851423,0.0,-0.0
0.5990297794342041,-0.18874,0.11582,0.37861108315907044,0.37861108315907044,0.37861108315907044,0.0,-0.0
0.6916401386260986,-0.22745,0.13974,0.3331071450937661,0.3331071450937661,0.3331071450937661,0.0,-0.0
0.7938880920410156,-0.2515,0.15511,0.304569500220441,0.304569500220441,0.304569500220441,0.0,-0.0
0.8862240314483643,-0.27066,0.16763,0.28168906867655324,0.28168906867655324,0.28168906867655324,0.0,-0.0
0.9969143867492676,-0.29418,0.1823,0.2539692087400313,0.2539692087400313,0.2539692087400313,0.0,-0.0
1.0976967811584473,-0.32129,0.19842,0.22243334363320688,0.22243334363320688,0.22243334363320688,0.0,-0.0
1.199293851852417,-0.34395,0.21245,0.19578160544082113,0.19578160544082113,0.19578160544082113,0.0,-0.0
1.3176345825195312,-0.36114,0.22378,0.17520226212937523,0.17520226212937523,0.17520226212937523,0.0,-0.0
1.4128544330596924,-0.37409,0.23158,0.16008575653884538,0.16008575653884538,0.16008575653884538,0.0,-0.0
1.5136754512786865,-0.38982,0.24158,0.14144753789778858,0.14144753789778858,0.14144753789778858,0.0,-0.0
1.6096386909484863,-0.40809,0.25274,0.12003909075842434,0.12003909075842434,0.12003909075842434,0.0,-0.0
1.7373554706573486,-0.41871,0.25918,0.10761953531846935,0.10761953531846935,0.10761953531846935,0.0,-0.0
1.831831455230713,-0.4255,0.26345,0.09959871203203319,0.09959871203203319,0.09959871203203319,0.0,-0.0
1.9396655559539795,-0.43339,0.26801,0.09048983121040655,0.09048983121040655,0.09048983121040655,0.0,-0.0
2.0350046157836914,-0.44259,0.27421,0.07940410287824973,0.07940410287824973,0.07940410287824973,0.0,-0.0
2.1317412853240967,-0.45175,0.27965,0.0687523002402739,0.0687523002402739,0.0687523002402739,0.0,-0.0
2.232057809829712,-0.45741,0.28293,0.06221328344779653,0.06221328344779653,0.06221328344779653,0.0,-0.0
2.3301234245300293,-0.46167,0.28585,0.057054279600621594,0.057054279600621594,0.057054279600621594,0.0,-0.0
2.437457799911499,-0.46637,0.28832,0.05175776850009073,0.05175776850009073,0.05175776850009073,0.0,-0.0
2.539754867553711,-0.47077,0.29102,0.04659542972613606,0.04659542972613606,0.04659542972613606,0.0,-0.0
2.6558997631073,-0.47748,0.29489,0.03885291322149764,0.03885291322149764,0.03885291322149764,0.0,-0.0
2.7518696784973145,-0.48212,0.29783,0.03336027230699756,0.03336027230699756,0.03336027230699756,0.0,-0.0
2.857384443283081,-0.48511,0.29952,0.02992827258317743,0.02992827258317743,0.02992827258317743,0.0,-0.0
2.958338499069214,-0.48501,0.2994,0.03007639213663027,0.03007639213663027,0.03007639213663027,0.0,0.0
3.060849189758301,-0.48643,0.30017,0.02846358287507178,0.02846358287507178,0.02846358287507178,0.0,-0.0
3.176464319229126,-0.49214,0.30341,0.02190273603830295,0.02190273603830295,0.02190273603830295,0.0,-0.0
3.272998571395874,-0.49653,0.30611,0.016748894814591853,0.016748894814591853,0.016748894814591853,0.0,-0.0
0.07231616973876953,-0.49004,0.30761,0.5997283384458558,0.5997283384458558,0.5997283384458558,0.0,-0.0
0.1623401641845703,-0.49001,0.30801,0.5993299999999999,0.5993299999999999,0.5993299999999999,0.0,-0.0
0.26294684410095215,-0.47746,0.32933,0.5746807859521667,0.5746807859521667,0.5746807859521667,0.0,-0.0
0.38120079040527344,-0.44332,0.38386,0.5103603519641001,0.5103603519641001,0.5103603519641001,0.0,-0.0
0.4825859069824219,-0.40648,0.44189,0.4416302951950721,0.4416302951950721,0.4416302951950721,0.0,-0.0
0.5859549045562744,-0.37178,0.49592,0.3774224869848708,0.3774224869848708,0.3774224869848708,0.0,-0.0
0.6840395927429199,-0.34445,0.53752,0.32765730044666147,0.32765730044666147,0.32765730044666147,0.0,-0.0
0.795701265335083,-0.33079,0.55795,0.3030885982317284,0.3030885982317284,0.3030885982317284,0.0,-0.0
0.9134676456451416,-0.31788,0.57785,0.2793687523025867,0.2793687523025867,0.2793687523025867,0.0,-0.0
1.015880823135376,-0.30154,0.6034,0.2490406512144176,0.2490406512144176,0.2490406512144176,0.0,-0.0
1.1159217357635498,-0.28389,0.63027,0.2168952632764768,0.2168952632764768,0.2168952632764768,0.0,-0.0
1.2338833808898926,-0.26765,0.65513,0.18720240589363896,0.18720240589363896,0.18720240589363896,0.0,-0.0
1.337083339691162,-0.25855,0.66856,0.17098529162743142,0.17098529162743142,0.17098529162743142,0.0,-0.0
1.423022985458374,-0.24982,0.68141,0.15545573786179628,0.15545573786179628,0.15545573786179628,0.0,-0.0
1.5518383979797363,-0.23862,0.69953,0.1341567557643451,0.1341567557643451,0.1341567557643451,0.0,-0.0
1.6594159603118896,-0.22937,0.71368,0.11725223439149923,0.11725223439149923,0.11725223439149923,0.0,-0.0
1.7692327499389648,-0.22096,0.72626,0.10212263668650284,0.10212263668650284,0.10212263668650284,0.0,-0.0
1.8768551349639893,-0.21706,0.73312,0.0942428340596645,0.0942428340596645,0.0942428340596645,0.0,-0.0
1.9609551429748535,-0.21246,0.74167,0.08456178702001538,0.08456178702001538,0.08456178702001538,0.0,-0.0
2.070566415786743,-0.20645,0.75059,0.07380912579179022,0.07380912579179022,0.07380912579179022,0.0,-0.0
2.164724349975586,-0.20151,0.75834,0.0646185938977708,0.0646185938977708,0.0646185938977708,0.0,-0.0
2.27510142326355,-0.19842,0.76215,0.05974370508063487,0.05974370508063487,0.05974370508063487,0.0,-0.0
2.3888046741485596,-0.19578,0.76611,0.05498513249636938,0.05498513249636938,0.05498513249636938,0.0,-0.0
2.4842445850372314,-0.19305,0.7711,0.04931081434260942,0.04931081434260942,0.04931081434260942,0.0,-0.0
2.596484899520874,-0.18969,0.77753,0.04208357391093054,0.04208357391093054,0.04208357391093054,0.0,-0.0
2.695493221282959,-0.18719,0.78206,0.0369200493713171,0.0369200493713171,0.0369200493713171,0.0,-0.0
2.7960476875305176,-0.18507,0.78476,0.03350352163495307,0.03350352163495307,0.03350352163495307,0.0,-0.0
2.913969039916992,-0.18337,0.7871,0.030616344456569355,0.030616344456569355,0.030616344456569355,0.0,-0.0
3.0134084224700928,-0.18162,0.78958,0.027584233533002656,0.027584233533002656,0.027584233533002656,0.0,-0.0
3.110964059829712,-0.18003,0.79204,0.02465515523296813,0.02465515523296813,0.02465515523296813,0.0,-0.0
3.2265217304229736,-0.1781,0.79567,0.020557132238216203,0.020557132238216203,0.020557132238216203,0.0,-0.0
3.3338375091552734,-0.17674,0.79807,0.017802416872072513,0.017802416872072513,0.017802416872072513,0.0,-0.0
0.0,-0.17894,0.79947,0.5996328488049862,0.5996328488049862,0.5996328488049862,0.0,0
0.1066884994506836,-0.17869,0.79965,0.5993405305162481,0.5993405305162481,0.5993405305162481,0.0,-0.0
0.20305418968200684,-0.16606,0.79207,0.5851443613398818,0.5851443613398818,0.5851443613398818,0.0,-0.0
0.31082725524902344,-0.11625,0.76007,0.5259737661365917,0.5259737661365917,0.5259737661365917,0.0,-0.0
0.40798163414001465,-0.05846,0.72159,0.4565622462529477,0.4565622462529477,0.4565622462529477,0.0,-0.0
0.5313107967376709,0.00717,0.6779,0.37772645996430426,0.37772645996430426,0.37772645996430426,0.0,-0.0
0.6298744678497314,0.04559,0.65246,0.33164847643436046,0.33164847643436046,0.33164847643436046,0.0,-0.0
0.7243499755859375,0.06942,0.63633,0.3028763153163315,0.3028763153163315,0.3028763153163315,0.0,-0.0
0.8188202381134033,0.08822,0.62407,0.28043203852701376,0.28043203852701376,0.28043203852701376,0.0,-0.0
0.9183309078216553,0.1113,0.60893,0.2528294010144292,0.2528294010144292,0.2528294010144292,0.0,-0.0
1.0285375118255615,0.14359,0.58795,0.21432243505746923,0.21432243505746923,0.21432243505746923,0.0,-0.0
1.1219050884246826,0.16146,0.57612,0.19289176218111231,0.19289176218111231,0.19289176218111231,0.0,-0.0
1.2414178848266602,0.178,0.56474,0.17282001158762128,0.17282001158762128,0.17282001158762128,0.0,-0.0
1.342456340789795,0.18865,0.5568,0.15955897625221138,0.15955897625221138,0.15955897625221138,0.0,-0.0
1.4447572231292725,0.20291,0.54767,0.1426280383539017,0.1426280383539017,0.1426280383539017,0.0,-0.0
1.5496416091918945,0.21866,0.53706,0.1236386912227232,0.1236386912227232,0.1236386912227232,0.0,-0.0
1.6719470024108887,0.23281,0.52781,0.10673362115384344,0.10673362115384344,0.10673362115384344,0.0,-0.0
1.7729318141937256,0.23996,0.52347,0.09837513139797371,0.09837513139797371,0.09837513139797371,0.0,-0.0
1.870037317276001,0.24745,0.51743,0.08879737549578237,0.08879737549578237,0.08879737549578237,0.0,-0.0
1.9710991382598877,0.25689,0.5108,0.07726637510104628,0.07726637510104628,0.07726637510104628,0.0,-0.0
2.0725555419921875,0.2654,0.50516,0.06705708513950581,0.06705708513950581,0.06705708513950581,0.0,-0.0
2.191972017288208,0.27022,0.50189,0.061232941615766534,0.061232941615766534,0.061232941615766534,0.0,-0.0
2.2924208641052246,0.27373,0.49959,0.05703654257399604,0.05703654257399604,0.05703654257399604,0.0,-0.0
2.388333797454834,0.27794,0.49688,0.05203011350987541,0.05203011350987541,0.05203011350987541,0.0,-0.0
2.4919238090515137,0.2838,0.4929,0.0449468593909228,0.0449468593909228,0.0449468593909228,0.0,-0.0
2.5922324657440186,0.28931,0.48965,0.03855818208829509,0.03855818208829509,0.03855818208829509,0.0,-0.0
2.6774303913116455,0.29163,0.488,0.035712940960010986,0.035712940960010986,0.035712940960010986,0.0,-0.0
2.8066062927246094,0.29215,0.48709,0.034777162085607105,0.034777162085607105,0.034777162085607105,0.0,-0.0
2.903000593185425,0.29541,0.48469,0.030733970361835117,0.030733970361835117,0.030733970361835117,0.0,-0.0
2.9994113445281982,0.29931,0.48182,0.02589757551461247,0.02589757551461247,0.02589757551461247,0.0,-0.0
3.104246139526367,0.30161,0.48025,0.02311305882348136,0.02311305882348136,0.02311305882348136,0.0,-0.0
3.218514919281006,0.30203,0.48003,0.022641448578095358,0.022641448578095358,0.022641448578095358,0.0,-0.0
3.3207340240478516,0.30262,0.47925,0.02171854811000551,0.02171854811000551,0.02171854811000551,0.0,-0.0
3.4206559658050537,0.30336,0.47823,0.020537665762475954,0.020537665762475954,0.020537665762475954,0.0,-0.0
3.54032826423645,0.30328,0.47799,0.02047130735398439,0.02047130735398439,0.02047130735398439,0.0,-0.0
3.6644177436828613,0.30454,0.4768,0.01876294156342706,0.01876294156342706,0.01876294156342706,0.0,-0.0
0.07608866691589355,0.29787,0.47939,0.59974,0.59974,0.59974,0.0,-0.0
0.17460083961486816,0.29771,0.47943,0.5996179005365091,0.5996179005365091,0.5996179005365091,0.0,-0.0
0.2815268039703369,0.28975,0.46634,0.5847794710998598,0.5847794710998598,0.5847794710998598,0.0,-0.0
0.38239264488220215,0.2558,0.41712,0.5249931349808565,0.5249931349808565,0.5249931349808565,0.0,-0.0
0.48169922828674316,0.21619,0.36127,0.45652992367744405,0.45652992367744405,0.45652992367744405,0.0,-0.0
0.5979650020599365,0.17157,0.2986,0.37960203608018506,0.37960203608018506,0.37960203608018506,0.0,-0.0
0.6970119476318359,0.14508,0.26149,0.33400897063998564,0.33400897063998564,0.33400897063998564,0.0,-0.0
0.8020434379577637,0.12587,0.23489,0.3012001378849046,0.3012001378849046,0.3012001378849046,0.0,-0.0
0.9202303886413574,0.11266,0.21573,0.2779287462377308,0.2779287462377308,0.2779287462377308,0.0,-0.0
1.0145599842071533,0.09563,0.19134,0.24818176326403996,0.24818176326403996,0.24818176326403996,0.0,-0.0
1.1320836544036865,0.07407,0.15971,0.2099062630597614,0.2099062630597614,0.2099062630597614,0.0,-0.0
1.2413265705108643,0.06034,0.1399,0.1858036946084622,0.1858036946084622,0.1858036946084622,0.0,-0.0
1.3602266311645508,0.0494,0.12439,0.16682370505762895,0.16682370505762895,0.16682370505762895,0.0,-0.0
1.4545280933380127,0.04116,0.11258,0.15242325685978725,0.15242325685978725,0.15242325685978725,0.0,-0.0
1.5634238719940186,0.02892,0.09553,0.13143601621550127,0.13143601621550127,0.13143601621550127,0.0,-0.0
1.649364709854126,0.01981,0.0824,0.11545531877854637,0.11545531877854637,0.11545531877854637,0.0,-0.0
1.7513198852539062,0.0146,0.07519,0.1065608056710533,0.1065608056710533,0.1065608056710533,0.0,-0.0
1.8633928298950195,0.00868,0.06765,0.0969881173371746,0.0969881173371746,0.0969881173371746,0.0,-0.0
1.9731202125549316,0.00237,0.05955,0.08673250638677688,0.08673250638677688,0.08673250638677688,0.0,-0.0
2.0829763412475586,-0.00453,0.05004,0.07498415062019315,0.07498415062019315,0.07498415062019315,0.0,-0.0
2.1699352264404297,-0.01085,0.04117,0.0640930371790267,0.0640930371790267,0.0640930371790267,0.0,-0.0
2.27140212059021,-0.01384,0.03753,0.059395060603401384,0.059395060603401384,0.059395060603401384,0.0,-0.0
2.3888978958129883,-0.01612,0.03458,0.05567012483237699,0.05567012483237699,0.05567012483237699,0.0,-0.0
2.4995224475860596,-0.01967,0.03059,0.05036262572492389,0.05036262572492389,0.05036262572492389,0.0,-0.0
2.595278024673462,-0.02407,0.02429,0.042678386207748,0.042678386207748,0.042678386207748,0.0,-0.0
2.691495418548584,-0.02891,0.01795,0.03470717818107749,0.03470717818107749,0.03470717818107749,0.0,-0.0
2.824737071990967,-0.02995,0.01592,0.03244950947074321,0.03244950947074321,0.03244950947074321,0.0,-0.0
2.9246411323547363,-0.02915,0.01612,0.03307471806242401,0.03307471806242401,0.03307471806242401,0.0,0.0
3.0209884643554688,-0.03026,0.01432,0.030964094454488666,0.030964094454488666,0.030964094454488666,0.0,-0.0
3.1166725158691406,-0.03257,0.01025,0.02630678790838037,0.02630678790838037,0.02630678790838037,0.0,-0.0
3.232940912246704,-0.03317,0.00914,0.025053828867432126,0.025053828867432126,0.025053828867432126,0.0,-0.0
3.3397598266601562,-0.03412,0.00754,0.023198682213710575,0.023198682213710575,0.023198682213710575,0.0,-0.0
3.4423158168792725,-0.03699,0.0037,0.018406581794463528,0.018406581794463528,0.018406581794463528,0.0,-0.0
